#FORMAT=WebAnno TSV 3.3
#T_SP=de.tudarmstadt.ukp.dkpro.core.api.ner.type.NamedEntity|identifier|value


#Text=# [Drill-down: Interactive Retrieval of Complex Scenes using Natural Language Queries.]
1-1	0-1	#	_	_	
1-2	2-3	[	_	_	
1-3	3-13	Drill-down	*[1]	PUBLICATION[1]	
1-4	13-14	:	*[1]	PUBLICATION[1]	
1-5	15-26	Interactive	*[1]	PUBLICATION[1]	
1-6	27-36	Retrieval	*[1]	PUBLICATION[1]	
1-7	37-39	of	*[1]	PUBLICATION[1]	
1-8	40-47	Complex	*[1]	PUBLICATION[1]	
1-9	48-54	Scenes	*[1]	PUBLICATION[1]	
1-10	55-60	using	*[1]	PUBLICATION[1]	
1-11	61-68	Natural	*[1]	PUBLICATION[1]	
1-12	69-77	Language	*[1]	PUBLICATION[1]	
1-13	78-85	Queries	*[1]	PUBLICATION[1]	
1-14	85-86	.	_	_	
1-15	86-87	]	_	_	

#Text=(https://arxiv.org/abs/1911.03826)
#Text=Fuwen Tan, Paola Cascante-Bonilla, Xiaoxiao Guo, Hui Wu, Song Feng, Vicente Ordonez.
2-1	87-88	(	_	_	
2-2	88-93	https	_	_	
2-3	93-94	:	_	_	
2-4	94-95	/	_	_	
2-5	95-96	/	_	_	
2-6	96-105	arxiv.org	_	_	
2-7	105-106	/	_	_	
2-8	106-109	abs	_	_	
2-9	109-110	/	_	_	
2-10	110-120	1911.03826	_	_	
2-11	120-121	)	_	_	
2-12	122-127	Fuwen	_	_	
2-13	128-131	Tan	_	_	
2-14	131-132	,	_	_	
2-15	133-138	Paola	_	_	
2-16	139-155	Cascante-Bonilla	_	_	
2-17	155-156	,	_	_	
2-18	157-165	Xiaoxiao	_	_	
2-19	166-169	Guo	_	_	
2-20	169-170	,	_	_	
2-21	171-174	Hui	_	_	
2-22	175-177	Wu	_	_	
2-23	177-178	,	_	_	
2-24	179-183	Song	_	_	
2-25	184-188	Feng	_	_	
2-26	188-189	,	_	_	
2-27	190-197	Vicente	_	_	
2-28	198-205	Ordonez	_	_	
2-29	205-206	.	_	_	

#Text=NeurIPS 2019
#Text=
#Text=
#Text=## Overview
#Text=This paper explores the task of interactive image retrieval using natural language queries, where a user progressively provides input queries to refine a set of retrieval results.
3-1	207-214	NeurIPS	*[2]	CONFERENCE[2]	
3-2	215-219	2019	*[2]	CONFERENCE[2]	
3-3	222-223	#	_	_	
3-4	223-224	#	_	_	
3-5	225-233	Overview	_	_	
3-6	234-238	This	_	_	
3-7	239-244	paper	_	_	
3-8	245-253	explores	_	_	
3-9	254-257	the	_	_	
3-10	258-262	task	_	_	
3-11	263-265	of	_	_	
3-12	266-277	interactive	_	_	
3-13	278-283	image	_	_	
3-14	284-293	retrieval	_	_	
3-15	294-299	using	_	_	
3-16	300-307	natural	_	_	
3-17	308-316	language	_	_	
3-18	317-324	queries	_	_	
3-19	324-325	,	_	_	
3-20	326-331	where	_	_	
3-21	332-333	a	_	_	
3-22	334-338	user	_	_	
3-23	339-352	progressively	_	_	
3-24	353-361	provides	_	_	
3-25	362-367	input	_	_	
3-26	368-375	queries	_	_	
3-27	376-378	to	_	_	
3-28	379-385	refine	_	_	
3-29	386-387	a	_	_	
3-30	388-391	set	_	_	
3-31	392-394	of	_	_	
3-32	395-404	retrieval	_	_	
3-33	405-412	results	_	_	
3-34	412-413	.	_	_	

#Text=Moreover, our work explores this problem in the context of complex image scenes containing multiple objects.
4-1	414-422	Moreover	_	_	
4-2	422-423	,	_	_	
4-3	424-427	our	_	_	
4-4	428-432	work	_	_	
4-5	433-441	explores	_	_	
4-6	442-446	this	_	_	
4-7	447-454	problem	_	_	
4-8	455-457	in	_	_	
4-9	458-461	the	_	_	
4-10	462-469	context	_	_	
4-11	470-472	of	_	_	
4-12	473-480	complex	_	_	
4-13	481-486	image	_	_	
4-14	487-493	scenes	_	_	
4-15	494-504	containing	_	_	
4-16	505-513	multiple	_	_	
4-17	514-521	objects	_	_	
4-18	521-522	.	_	_	

#Text=We propose Drill-down, an effective framework for encoding multiple queries with an efficient compact state representation that significantly extends current methods for single-round image retrieval.
5-1	523-525	We	_	_	
5-2	526-533	propose	_	_	
5-3	534-544	Drill-down	_	_	
5-4	544-545	,	_	_	
5-5	546-548	an	_	_	
5-6	549-558	effective	_	_	
5-7	559-568	framework	_	_	
5-8	569-572	for	_	_	
5-9	573-581	encoding	_	_	
5-10	582-590	multiple	_	_	
5-11	591-598	queries	_	_	
5-12	599-603	with	_	_	
5-13	604-606	an	_	_	
5-14	607-616	efficient	_	_	
5-15	617-624	compact	_	_	
5-16	625-630	state	_	_	
5-17	631-645	representation	_	_	
5-18	646-650	that	_	_	
5-19	651-664	significantly	_	_	
5-20	665-672	extends	_	_	
5-21	673-680	current	_	_	
5-22	681-688	methods	_	_	
5-23	689-692	for	_	_	
5-24	693-705	single-round	_	_	
5-25	706-711	image	_	_	
5-26	712-721	retrieval	_	_	
5-27	721-722	.	_	_	

#Text=We show that using multiple rounds of natural language queries as input can be surprisingly effective to find arbitrarily specific images of complex scenes.
6-1	723-725	We	_	_	
6-2	726-730	show	_	_	
6-3	731-735	that	_	_	
6-4	736-741	using	_	_	
6-5	742-750	multiple	_	_	
6-6	751-757	rounds	_	_	
6-7	758-760	of	_	_	
6-8	761-768	natural	_	_	
6-9	769-777	language	_	_	
6-10	778-785	queries	_	_	
6-11	786-788	as	_	_	
6-12	789-794	input	_	_	
6-13	795-798	can	_	_	
6-14	799-801	be	_	_	
6-15	802-814	surprisingly	_	_	
6-16	815-824	effective	_	_	
6-17	825-827	to	_	_	
6-18	828-832	find	_	_	
6-19	833-844	arbitrarily	_	_	
6-20	845-853	specific	_	_	
6-21	854-860	images	_	_	
6-22	861-863	of	_	_	
6-23	864-871	complex	_	_	
6-24	872-878	scenes	_	_	
6-25	878-879	.	_	_	

#Text=Furthermore, we find that existing image datasets with textual captions can provide a surprisingly effective form of weak supervision for this task.
7-1	880-891	Furthermore	_	_	
7-2	891-892	,	_	_	
7-3	893-895	we	_	_	
7-4	896-900	find	_	_	
7-5	901-905	that	_	_	
7-6	906-914	existing	_	_	
7-7	915-920	image	_	_	
7-8	921-929	datasets	_	_	
7-9	930-934	with	_	_	
7-10	935-942	textual	_	_	
7-11	943-951	captions	_	_	
7-12	952-955	can	_	_	
7-13	956-963	provide	_	_	
7-14	964-965	a	_	_	
7-15	966-978	surprisingly	_	_	
7-16	979-988	effective	_	_	
7-17	989-993	form	_	_	
7-18	994-996	of	_	_	
7-19	997-1001	weak	_	_	
7-20	1002-1013	supervision	_	_	
7-21	1014-1017	for	_	_	
7-22	1018-1022	this	_	_	
7-23	1023-1027	task	_	_	
7-24	1027-1028	.	_	_	

#Text=We compare our method with existing sequential encoding and embedding networks, demonstrating superior performance on two proposed benchmarks: automatic image retrieval on a simulated scenario that uses region captions as queries, and interactive image retrieval using real queries from human evaluators.
#Text=
#Text=## Requirements
#Text=- Setup a conda environment and install some prerequisite packages like this
#Text=```bash
#Text=conda create -n retrieval python=3.6    # Create a virtual environment
#Text=source activate retrieval         \t    # Activate virtual environment
#Text=conda install jupyter scikit-image cython opencv seaborn nltk pycairo h5py  # Install dependencies
#Text=python -m nltk.downloader all\t\t\t\t    # Install NLTK data
#Text=```
#Text=- Please also install [pytorch](http://pytorch.org/) 1.0 (or higher), torchVision, and torchtext
#Text=
#Text=
#Text=## Data 
#Text=- Download the images of the Visual Genome dataset if you have not done so
#Text=```Shell
#Text=.
8-1	1029-1031	We	_	_	
8-2	1032-1039	compare	_	_	
8-3	1040-1043	our	_	_	
8-4	1044-1050	method	_	_	
8-5	1051-1055	with	_	_	
8-6	1056-1064	existing	_	_	
8-7	1065-1075	sequential	_	_	
8-8	1076-1084	encoding	_	_	
8-9	1085-1088	and	_	_	
8-10	1089-1098	embedding	_	_	
8-11	1099-1107	networks	_	_	
8-12	1107-1108	,	_	_	
8-13	1109-1122	demonstrating	_	_	
8-14	1123-1131	superior	_	_	
8-15	1132-1143	performance	_	_	
8-16	1144-1146	on	_	_	
8-17	1147-1150	two	_	_	
8-18	1151-1159	proposed	_	_	
8-19	1160-1170	benchmarks	_	_	
8-20	1170-1171	:	_	_	
8-21	1172-1181	automatic	_	_	
8-22	1182-1187	image	_	_	
8-23	1188-1197	retrieval	_	_	
8-24	1198-1200	on	_	_	
8-25	1201-1202	a	_	_	
8-26	1203-1212	simulated	_	_	
8-27	1213-1221	scenario	_	_	
8-28	1222-1226	that	_	_	
8-29	1227-1231	uses	_	_	
8-30	1232-1238	region	_	_	
8-31	1239-1247	captions	_	_	
8-32	1248-1250	as	_	_	
8-33	1251-1258	queries	_	_	
8-34	1258-1259	,	_	_	
8-35	1260-1263	and	_	_	
8-36	1264-1275	interactive	_	_	
8-37	1276-1281	image	_	_	
8-38	1282-1291	retrieval	_	_	
8-39	1292-1297	using	_	_	
8-40	1298-1302	real	_	_	
8-41	1303-1310	queries	_	_	
8-42	1311-1315	from	_	_	
8-43	1316-1321	human	_	_	
8-44	1322-1332	evaluators	_	_	
8-45	1332-1333	.	_	_	
8-46	1335-1336	#	_	_	
8-47	1336-1337	#	_	_	
8-48	1338-1350	Requirements	_	_	
8-49	1351-1352	-	_	_	
8-50	1353-1358	Setup	_	_	
8-51	1359-1360	a	_	_	
8-52	1361-1366	conda	*	SOFTWARE	
8-53	1367-1378	environment	_	_	
8-54	1379-1382	and	_	_	
8-55	1383-1390	install	_	_	
8-56	1391-1395	some	_	_	
8-57	1396-1408	prerequisite	_	_	
8-58	1409-1417	packages	_	_	
8-59	1418-1422	like	_	_	
8-60	1423-1427	this	_	_	
8-61	1428-1429	`	_	_	
8-62	1429-1430	`	_	_	
8-63	1430-1431	`	_	_	
8-64	1431-1435	bash	*	PROGLANG	
8-65	1436-1441	conda	_	_	
8-66	1442-1448	create	_	_	
8-67	1449-1450	-	_	_	
8-68	1450-1451	n	_	_	
8-69	1452-1461	retrieval	_	_	
8-70	1462-1468	python	*[3]	PROGLANG[3]	
8-71	1468-1469	=	*[3]	PROGLANG[3]	
8-72	1469-1472	3.6	*[3]	PROGLANG[3]	
8-73	1476-1477	#	_	_	
8-74	1478-1484	Create	_	_	
8-75	1485-1486	a	_	_	
8-76	1487-1494	virtual	_	_	
8-77	1495-1506	environment	_	_	
8-78	1507-1513	source	_	_	
8-79	1514-1522	activate	_	_	
8-80	1523-1532	retrieval	_	_	
8-81	1546-1547	#	_	_	
8-82	1548-1556	Activate	_	_	
8-83	1557-1564	virtual	_	_	
8-84	1565-1576	environment	_	_	
8-85	1577-1582	conda	*	SOFTWARE	
8-86	1583-1590	install	_	_	
8-87	1591-1598	jupyter	*	SOFTWARE	
8-88	1599-1611	scikit-image	*	SOFTWARE	
8-89	1612-1618	cython	*	SOFTWARE	
8-90	1619-1625	opencv	*	SOFTWARE	
8-91	1626-1633	seaborn	*	SOFTWARE	
8-92	1634-1638	nltk	*	SOFTWARE	
8-93	1639-1646	pycairo	*	SOFTWARE	
8-94	1647-1651	h5py	*	SOFTWARE	
8-95	1653-1654	#	_	_	
8-96	1655-1662	Install	_	_	
8-97	1663-1675	dependencies	_	_	
8-98	1676-1682	python	*	SOFTWARE	
8-99	1683-1684	-	_	_	
8-100	1684-1685	m	_	_	
8-101	1686-1701	nltk.downloader	_	_	
8-101.1	1686-1690	nltk	*	SOFTWARE	
8-102	1702-1705	all	_	_	
8-103	1713-1714	#	_	_	
8-104	1715-1722	Install	_	_	
8-105	1723-1727	NLTK	*	SOFTWARE	
8-106	1728-1732	data	_	_	
8-107	1733-1734	`	_	_	
8-108	1734-1735	`	_	_	
8-109	1735-1736	`	_	_	
8-110	1737-1738	-	_	_	
8-111	1739-1745	Please	_	_	
8-112	1746-1750	also	_	_	
8-113	1751-1758	install	_	_	
8-114	1759-1760	[	_	_	
8-115	1760-1767	pytorch	*	SOFTWARE	
8-116	1767-1768	]	_	_	
8-117	1768-1769	(	_	_	
8-118	1769-1773	http	_	_	
8-119	1773-1774	:	_	_	
8-120	1774-1775	/	_	_	
8-121	1775-1776	/	_	_	
8-122	1776-1787	pytorch.org	_	_	
8-122.1	1776-1783	pytorch	*	SOFTWARE	
8-123	1787-1788	/	_	_	
8-124	1788-1789	)	_	_	
8-125	1790-1793	1.0	_	_	
8-126	1794-1795	(	_	_	
8-127	1795-1797	or	_	_	
8-128	1798-1804	higher	_	_	
8-129	1804-1805	)	_	_	
8-130	1805-1806	,	_	_	
8-131	1807-1818	torchVision	*	SOFTWARE	
8-132	1818-1819	,	_	_	
8-133	1820-1823	and	_	_	
8-134	1824-1833	torchtext	*	SOFTWARE	
8-135	1836-1837	#	_	_	
8-136	1837-1838	#	_	_	
8-137	1839-1843	Data	_	_	
8-138	1845-1846	-	_	_	
8-139	1847-1855	Download	_	_	
8-140	1856-1859	the	_	_	
8-141	1860-1866	images	_	_	
8-142	1867-1869	of	_	_	
8-143	1870-1873	the	_	_	
8-144	1874-1880	Visual	*[4]	DATASET[4]	
8-145	1881-1887	Genome	*[4]	DATASET[4]	
8-146	1888-1895	dataset	_	_	
8-147	1896-1898	if	_	_	
8-148	1899-1902	you	_	_	
8-149	1903-1907	have	_	_	
8-150	1908-1911	not	_	_	
8-151	1912-1916	done	_	_	
8-152	1917-1919	so	_	_	
8-153	1920-1921	`	_	_	
8-154	1921-1922	`	_	_	
8-155	1922-1923	`	_	_	
8-156	1923-1928	Shell	*	PROGLANG	
8-157	1929-1930	.	_	_	

#Text=/experiments/scripts/fetch_images.sh
#Text=```
#Text=This will populate the `DrillDown/data` folder with `vg/VG_100K` and `vg/VG_100K_2`
9-1	1930-1931	/	_	_	
9-2	1931-1942	experiments	_	_	
9-3	1942-1943	/	_	_	
9-4	1943-1950	scripts	_	_	
9-5	1950-1951	/	_	_	
9-6	1951-1966	fetch_images.sh	_	_	
9-7	1967-1968	`	_	_	
9-8	1968-1969	`	_	_	
9-9	1969-1970	`	_	_	
9-10	1971-1975	This	_	_	
9-11	1976-1980	will	_	_	
9-12	1981-1989	populate	_	_	
9-13	1990-1993	the	_	_	
9-14	1994-1995	`	_	_	
9-15	1995-2004	DrillDown	_	_	
9-16	2004-2005	/	_	_	
9-17	2005-2009	data	_	_	
9-18	2009-2010	`	_	_	
9-19	2011-2017	folder	_	_	
9-20	2018-2022	with	_	_	
9-21	2023-2024	`	_	_	
9-22	2024-2026	vg	_	_	
9-23	2026-2027	/	_	_	
9-24	2027-2029	VG	*[5]	DATASET[5]	
9-25	2029-2030	_	*[5]	DATASET[5]	
9-26	2030-2034	100K	*[5]	DATASET[5]	
9-27	2034-2035	`	_	_	
9-28	2036-2039	and	_	_	
9-29	2040-2041	`	_	_	
9-30	2041-2043	vg	_	_	
9-31	2043-2044	/	_	_	
9-32	2044-2046	VG	*[6]	DATASET[6]	
9-33	2046-2047	_	*[6]	DATASET[6]	
9-34	2047-2051	100K	*[6]	DATASET[6]	
9-35	2051-2052	_	*[6]	DATASET[6]	
9-36	2052-2053	2	*[6]	DATASET[6]	
9-37	2053-2054	`	_	_	

#Text=.
10-1	2054-2055	.	_	_	

#Text=- Download the annotations of the images
#Text=```Shell
#Text=.
11-1	2057-2058	-	_	_	
11-2	2059-2067	Download	_	_	
11-3	2068-2071	the	_	_	
11-4	2072-2083	annotations	_	_	
11-5	2084-2086	of	_	_	
11-6	2087-2090	the	_	_	
11-7	2091-2097	images	_	_	
11-8	2098-2099	`	_	_	
11-9	2099-2100	`	_	_	
11-10	2100-2101	`	_	_	
11-11	2101-2106	Shell	*	PROGLANG	
11-12	2107-2108	.	_	_	

#Text=/experiments/scripts/fetch_annotations.sh
#Text=```
#Text=This will populate the `DrillDown/data` folder with `vg/sg_xmls` and `vg/rg_jsons`, which are per-image scene-graph and region-graph annotations
12-1	2108-2109	/	_	_	
12-2	2109-2120	experiments	_	_	
12-3	2120-2121	/	_	_	
12-4	2121-2128	scripts	_	_	
12-5	2128-2129	/	_	_	
12-6	2129-2149	fetch_annotations.sh	_	_	
12-7	2150-2151	`	_	_	
12-8	2151-2152	`	_	_	
12-9	2152-2153	`	_	_	
12-10	2154-2158	This	_	_	
12-11	2159-2163	will	_	_	
12-12	2164-2172	populate	_	_	
12-13	2173-2176	the	_	_	
12-14	2177-2178	`	_	_	
12-15	2178-2187	DrillDown	_	_	
12-16	2187-2188	/	_	_	
12-17	2188-2192	data	_	_	
12-18	2192-2193	`	_	_	
12-19	2194-2200	folder	_	_	
12-20	2201-2205	with	_	_	
12-21	2206-2207	`	_	_	
12-22	2207-2209	vg	_	_	
12-23	2209-2210	/	_	_	
12-24	2210-2217	sg_xmls	_	_	
12-25	2217-2218	`	_	_	
12-26	2219-2222	and	_	_	
12-27	2223-2224	`	_	_	
12-28	2224-2226	vg	_	_	
12-29	2226-2227	/	_	_	
12-30	2227-2235	rg_jsons	_	_	
12-31	2235-2236	`	_	_	
12-32	2236-2237	,	_	_	
12-33	2238-2243	which	_	_	
12-34	2244-2247	are	_	_	
12-35	2248-2257	per-image	_	_	
12-36	2258-2269	scene-graph	_	_	
12-37	2270-2273	and	_	_	
12-38	2274-2286	region-graph	_	_	
12-39	2287-2298	annotations	_	_	

#Text=.
13-1	2298-2299	.	_	_	

#Text=- Download the global image features and region features
#Text=```Shell
#Text=.
14-1	2301-2302	-	_	_	
14-2	2303-2311	Download	_	_	
14-3	2312-2315	the	_	_	
14-4	2316-2322	global	_	_	
14-5	2323-2328	image	_	_	
14-6	2329-2337	features	_	_	
14-7	2338-2341	and	_	_	
14-8	2342-2348	region	_	_	
14-9	2349-2357	features	_	_	
14-10	2358-2359	`	_	_	
14-11	2359-2360	`	_	_	
14-12	2360-2361	`	_	_	
14-13	2361-2366	Shell	*	PROGLANG	
14-14	2367-2368	.	_	_	

#Text=/experiments/scripts/fetch_features.sh
#Text=```
#Text=This will populate the `DrillDown/data` folder with `vg/global_features` and `vg/region_36_final`, which are the global features and region features of the images.
15-1	2368-2369	/	_	_	
15-2	2369-2380	experiments	_	_	
15-3	2380-2381	/	_	_	
15-4	2381-2388	scripts	_	_	
15-5	2388-2389	/	_	_	
15-6	2389-2406	fetch_features.sh	_	_	
15-7	2407-2408	`	_	_	
15-8	2408-2409	`	_	_	
15-9	2409-2410	`	_	_	
15-10	2411-2415	This	_	_	
15-11	2416-2420	will	_	_	
15-12	2421-2429	populate	_	_	
15-13	2430-2433	the	_	_	
15-14	2434-2435	`	_	_	
15-15	2435-2444	DrillDown	_	_	
15-16	2444-2445	/	_	_	
15-17	2445-2449	data	_	_	
15-18	2449-2450	`	_	_	
15-19	2451-2457	folder	_	_	
15-20	2458-2462	with	_	_	
15-21	2463-2464	`	_	_	
15-22	2464-2466	vg	_	_	
15-23	2466-2467	/	_	_	
15-24	2467-2482	global_features	_	_	
15-25	2482-2483	`	_	_	
15-26	2484-2487	and	_	_	
15-27	2488-2489	`	_	_	
15-28	2489-2491	vg	_	_	
15-29	2491-2492	/	_	_	
15-30	2492-2498	region	_	_	
15-31	2498-2499	_	_	_	
15-32	2499-2501	36	_	_	
15-33	2501-2502	_	_	_	
15-34	2502-2507	final	_	_	
15-35	2507-2508	`	_	_	
15-36	2508-2509	,	_	_	
15-37	2510-2515	which	_	_	
15-38	2516-2519	are	_	_	
15-39	2520-2523	the	_	_	
15-40	2524-2530	global	_	_	
15-41	2531-2539	features	_	_	
15-42	2540-2543	and	_	_	
15-43	2544-2550	region	_	_	
15-44	2551-2559	features	_	_	
15-45	2560-2562	of	_	_	
15-46	2563-2566	the	_	_	
15-47	2567-2573	images	_	_	
15-48	2573-2574	.	_	_	

#Text=The global features were extracted from a pretrained ResNet101 model.
16-1	2575-2578	The	_	_	
16-2	2579-2585	global	_	_	
16-3	2586-2594	features	_	_	
16-4	2595-2599	were	_	_	
16-5	2600-2609	extracted	_	_	
16-6	2610-2614	from	_	_	
16-7	2615-2616	a	_	_	
16-8	2617-2627	pretrained	_	_	
16-9	2628-2637	ResNet101	_	_	
16-10	2638-2643	model	_	_	
16-11	2643-2644	.	_	_	

#Text=The region features were extracted from a pretrained FasterRCNN model provided by https://github.com/peteanderson80/bottom-up-attention.
17-1	2645-2648	The	_	_	
17-2	2649-2655	region	_	_	
17-3	2656-2664	features	_	_	
17-4	2665-2669	were	_	_	
17-5	2670-2679	extracted	_	_	
17-6	2680-2684	from	_	_	
17-7	2685-2686	a	_	_	
17-8	2687-2697	pretrained	_	_	
17-9	2698-2708	FasterRCNN	_	_	
17-10	2709-2714	model	_	_	
17-11	2715-2723	provided	_	_	
17-12	2724-2726	by	_	_	
17-13	2727-2732	https	_	_	
17-14	2732-2733	:	_	_	
17-15	2733-2734	/	_	_	
17-16	2734-2735	/	_	_	
17-17	2735-2745	github.com	_	_	
17-18	2745-2746	/	_	_	
17-19	2746-2760	peteanderson80	_	_	
17-20	2760-2761	/	_	_	
17-21	2761-2780	bottom-up-attention	_	_	
17-22	2780-2781	.	_	_	

#Text=Please see `tools/save_image_features.py`, the FasterRCNN repo, and `tools/save_region_features.py` for more details
18-1	2782-2788	Please	_	_	
18-2	2789-2792	see	_	_	
18-3	2793-2794	`	_	_	
18-4	2794-2799	tools	_	_	
18-5	2799-2800	/	_	_	
18-6	2800-2822	save_image_features.py	_	_	
18-7	2822-2823	`	_	_	
18-8	2823-2824	,	_	_	
18-9	2825-2828	the	_	_	
18-10	2829-2839	FasterRCNN	_	_	
18-11	2840-2844	repo	_	_	
18-12	2844-2845	,	_	_	
18-13	2846-2849	and	_	_	
18-14	2850-2851	`	_	_	
18-15	2851-2856	tools	_	_	
18-16	2856-2857	/	_	_	
18-17	2857-2880	save_region_features.py	_	_	
18-18	2880-2881	`	_	_	
18-19	2882-2885	for	_	_	
18-20	2886-2890	more	_	_	
18-21	2891-2898	details	_	_	

#Text=.
19-1	2898-2899	.	_	_	

#Text=- Download the pretrained models
#Text=```Shell
#Text=.
20-1	2901-2902	-	_	_	
20-2	2903-2911	Download	_	_	
20-3	2912-2915	the	_	_	
20-4	2916-2926	pretrained	_	_	
20-5	2927-2933	models	_	_	
20-6	2934-2935	`	_	_	
20-7	2935-2936	`	_	_	
20-8	2936-2937	`	_	_	
20-9	2937-2942	Shell	*	PROGLANG	
20-10	2943-2944	.	_	_	

#Text=/experiments/scripts/fetch_pretrained_models.sh
#Text=```
#Text=This will populate the `DrillDown/data` folder with `caches/image_ckpts` and `caches/region_ckpts`
#Text=
#Text=
#Text=## Training/evaluation scripts
#Text=The training/evaluation scripts of different models are also included in `.
21-1	2944-2945	/	_	_	
21-2	2945-2956	experiments	_	_	
21-3	2956-2957	/	_	_	
21-4	2957-2964	scripts	_	_	
21-5	2964-2965	/	_	_	
21-6	2965-2991	fetch_pretrained_models.sh	_	_	
21-7	2992-2993	`	_	_	
21-8	2993-2994	`	_	_	
21-9	2994-2995	`	_	_	
21-10	2996-3000	This	_	_	
21-11	3001-3005	will	_	_	
21-12	3006-3014	populate	_	_	
21-13	3015-3018	the	_	_	
21-14	3019-3020	`	_	_	
21-15	3020-3029	DrillDown	_	_	
21-16	3029-3030	/	_	_	
21-17	3030-3034	data	_	_	
21-18	3034-3035	`	_	_	
21-19	3036-3042	folder	_	_	
21-20	3043-3047	with	_	_	
21-21	3048-3049	`	_	_	
21-22	3049-3055	caches	_	_	
21-23	3055-3056	/	_	_	
21-24	3056-3067	image_ckpts	_	_	
21-25	3067-3068	`	_	_	
21-26	3069-3072	and	_	_	
21-27	3073-3074	`	_	_	
21-28	3074-3080	caches	_	_	
21-29	3080-3081	/	_	_	
21-30	3081-3093	region_ckpts	_	_	
21-31	3093-3094	`	_	_	
21-32	3097-3098	#	_	_	
21-33	3098-3099	#	_	_	
21-34	3100-3108	Training	_	_	
21-35	3108-3109	/	_	_	
21-36	3109-3119	evaluation	_	_	
21-37	3120-3127	scripts	_	_	
21-38	3128-3131	The	_	_	
21-39	3132-3140	training	_	_	
21-40	3140-3141	/	_	_	
21-41	3141-3151	evaluation	_	_	
21-42	3152-3159	scripts	_	_	
21-43	3160-3162	of	_	_	
21-44	3163-3172	different	_	_	
21-45	3173-3179	models	_	_	
21-46	3180-3183	are	_	_	
21-47	3184-3188	also	_	_	
21-48	3189-3197	included	_	_	
21-49	3198-3200	in	_	_	
21-50	3201-3202	`	_	_	
21-51	3202-3203	.	_	_	

#Text=/experiments/scripts`.
22-1	3203-3204	/	_	_	
22-2	3204-3215	experiments	_	_	
22-3	3215-3216	/	_	_	
22-4	3216-3223	scripts	_	_	
22-5	3223-3224	`	_	_	
22-6	3224-3225	.	_	_	

#Text=The results will appear in `DrillDown/logs`
#Text=Please note that, when finetuning the supervisedly pretrained DrillDown model, e.g. runing the script
#Text=```Shell
#Text=.
23-1	3227-3230	The	_	_	
23-2	3231-3238	results	_	_	
23-3	3239-3243	will	_	_	
23-4	3244-3250	appear	_	_	
23-5	3251-3253	in	_	_	
23-6	3254-3255	`	_	_	
23-7	3255-3264	DrillDown	_	_	
23-8	3264-3265	/	_	_	
23-9	3265-3269	logs	_	_	
23-10	3269-3270	`	_	_	
23-11	3271-3277	Please	_	_	
23-12	3278-3282	note	_	_	
23-13	3283-3287	that	_	_	
23-14	3287-3288	,	_	_	
23-15	3289-3293	when	_	_	
23-16	3294-3304	finetuning	_	_	
23-17	3305-3308	the	_	_	
23-18	3309-3321	supervisedly	_	_	
23-19	3322-3332	pretrained	_	_	
23-20	3333-3342	DrillDown	_	_	
23-21	3343-3348	model	_	_	
23-22	3348-3349	,	_	_	
23-23	3350-3353	e.g	_	_	
23-24	3353-3354	.	_	_	
23-25	3355-3361	runing	_	_	
23-26	3362-3365	the	_	_	
23-27	3366-3372	script	_	_	
23-28	3373-3374	`	_	_	
23-29	3374-3375	`	_	_	
23-30	3375-3376	`	_	_	
23-31	3376-3381	Shell	*	PROGLANG	
23-32	3382-3383	.	_	_	

#Text=/experiments/scripts/train_drill_down_3x128_reinforce.sh
#Text=```
#Text=the default pretrained model is `DrillDown/caches/region_ckpts/vg_f128_i3_sl_ckpt.pkl`.
#Text=
#Text=
#Text=
#Text=## Citing
#Text=
#Text=If you find our paper/code useful, please consider citing:
#Text=
#Text=\t@InProceedings{drilldown,
#Text=    author={Fuwen Tan and Paola Cascante-Bonilla and Xiaoxiao Guo and Hui Wu and Song Feng and Vicente Ordonez},
#Text=    title={Drill-down: Interactive Retrieval of Complex Scenes using Natural Language Queries},
#Text=    booktitle = {Neural Information Processing Systems (NeurIPS)},
#Text=    month = {December},
#Text=    year = {2019}
#Text=    }
#Text=
#Text=
#Text=    
#Text=# License
#Text=
#Text=This project is licensed under the [MIT license](https://opensource.org/licenses/MIT):
#Text=
#Text=Copyright (c) 2019 University of Virginia, Fuwen Tan, Paola Cascante-Bonilla, Xiaoxiao Guo, Hui Wu, Song Feng, Vicente Ordonez.
24-1	3383-3384	/	_	_	
24-2	3384-3395	experiments	_	_	
24-3	3395-3396	/	_	_	
24-4	3396-3403	scripts	_	_	
24-5	3403-3404	/	_	_	
24-6	3404-3420	train_drill_down	_	_	
24-7	3420-3421	_	_	_	
24-8	3421-3426	3x128	_	_	
24-9	3426-3427	_	_	_	
24-10	3427-3439	reinforce.sh	_	_	
24-11	3440-3441	`	_	_	
24-12	3441-3442	`	_	_	
24-13	3442-3443	`	_	_	
24-14	3444-3447	the	_	_	
24-15	3448-3455	default	_	_	
24-16	3456-3466	pretrained	_	_	
24-17	3467-3472	model	_	_	
24-18	3473-3475	is	_	_	
24-19	3476-3477	`	_	_	
24-20	3477-3486	DrillDown	_	_	
24-21	3486-3487	/	_	_	
24-22	3487-3493	caches	_	_	
24-23	3493-3494	/	_	_	
24-24	3494-3506	region_ckpts	_	_	
24-25	3506-3507	/	_	_	
24-26	3507-3514	vg_f128	_	_	
24-27	3514-3515	_	_	_	
24-28	3515-3517	i3	_	_	
24-29	3517-3518	_	_	_	
24-30	3518-3529	sl_ckpt.pkl	_	_	
24-31	3529-3530	`	_	_	
24-32	3530-3531	.	_	_	
24-33	3535-3536	#	_	_	
24-34	3536-3537	#	_	_	
24-35	3538-3544	Citing	_	_	
24-36	3546-3548	If	_	_	
24-37	3549-3552	you	_	_	
24-38	3553-3557	find	_	_	
24-39	3558-3561	our	_	_	
24-40	3562-3567	paper	_	_	
24-41	3567-3568	/	_	_	
24-42	3568-3572	code	_	_	
24-43	3573-3579	useful	_	_	
24-44	3579-3580	,	_	_	
24-45	3581-3587	please	_	_	
24-46	3588-3596	consider	_	_	
24-47	3597-3603	citing	_	_	
24-48	3603-3604	:	_	_	
24-49	3607-3608	@	_	_	
24-50	3608-3621	InProceedings	_	_	
24-51	3621-3622	{	_	_	
24-52	3622-3631	drilldown	_	_	
24-53	3631-3632	,	_	_	
24-54	3637-3643	author	_	_	
24-55	3643-3644	=	_	_	
24-56	3644-3645	{	_	_	
24-57	3645-3650	Fuwen	_	_	
24-58	3651-3654	Tan	_	_	
24-59	3655-3658	and	_	_	
24-60	3659-3664	Paola	_	_	
24-61	3665-3681	Cascante-Bonilla	_	_	
24-62	3682-3685	and	_	_	
24-63	3686-3694	Xiaoxiao	_	_	
24-64	3695-3698	Guo	_	_	
24-65	3699-3702	and	_	_	
24-66	3703-3706	Hui	_	_	
24-67	3707-3709	Wu	_	_	
24-68	3710-3713	and	_	_	
24-69	3714-3718	Song	_	_	
24-70	3719-3723	Feng	_	_	
24-71	3724-3727	and	_	_	
24-72	3728-3735	Vicente	_	_	
24-73	3736-3743	Ordonez	_	_	
24-74	3743-3744	}	_	_	
24-75	3744-3745	,	_	_	
24-76	3750-3755	title	_	_	
24-77	3755-3756	=	_	_	
24-78	3756-3757	{	_	_	
24-79	3757-3767	Drill-down	*[7]	PUBLICATION[7]	
24-80	3767-3768	:	*[7]	PUBLICATION[7]	
24-81	3769-3780	Interactive	*[7]	PUBLICATION[7]	
24-82	3781-3790	Retrieval	*[7]	PUBLICATION[7]	
24-83	3791-3793	of	*[7]	PUBLICATION[7]	
24-84	3794-3801	Complex	*[7]	PUBLICATION[7]	
24-85	3802-3808	Scenes	*[7]	PUBLICATION[7]	
24-86	3809-3814	using	*[7]	PUBLICATION[7]	
24-87	3815-3822	Natural	*[7]	PUBLICATION[7]	
24-88	3823-3831	Language	*[7]	PUBLICATION[7]	
24-89	3832-3839	Queries	*[7]	PUBLICATION[7]	
24-90	3839-3840	}	_	_	
24-91	3840-3841	,	_	_	
24-92	3846-3855	booktitle	_	_	
24-93	3856-3857	=	_	_	
24-94	3858-3859	{	_	_	
24-95	3859-3865	Neural	*[8]	CONFERENCE[8]	
24-96	3866-3877	Information	*[8]	CONFERENCE[8]	
24-97	3878-3888	Processing	*[8]	CONFERENCE[8]	
24-98	3889-3896	Systems	*[8]	CONFERENCE[8]	
24-99	3897-3898	(	_	_	
24-100	3898-3905	NeurIPS	*	CONFERENCE	
24-101	3905-3906	)	_	_	
24-102	3906-3907	}	_	_	
24-103	3907-3908	,	_	_	
24-104	3913-3918	month	_	_	
24-105	3919-3920	=	_	_	
24-106	3921-3922	{	_	_	
24-107	3922-3930	December	_	_	
24-108	3930-3931	}	_	_	
24-109	3931-3932	,	_	_	
24-110	3937-3941	year	_	_	
24-111	3942-3943	=	_	_	
24-112	3944-3945	{	_	_	
24-113	3945-3949	2019	_	_	
24-114	3949-3950	}	_	_	
24-115	3955-3956	}	_	_	
24-116	3964-3965	#	_	_	
24-117	3966-3973	License	_	_	
24-118	3975-3979	This	_	_	
24-119	3980-3987	project	_	_	
24-120	3988-3990	is	_	_	
24-121	3991-3999	licensed	_	_	
24-122	4000-4005	under	_	_	
24-123	4006-4009	the	_	_	
24-124	4010-4011	[	_	_	
24-125	4011-4014	MIT	*	LICENSE	
24-126	4015-4022	license	_	_	
24-127	4022-4023	]	_	_	
24-128	4023-4024	(	_	_	
24-129	4024-4029	https	_	_	
24-130	4029-4030	:	_	_	
24-131	4030-4031	/	_	_	
24-132	4031-4032	/	_	_	
24-133	4032-4046	opensource.org	_	_	
24-134	4046-4047	/	_	_	
24-135	4047-4055	licenses	_	_	
24-136	4055-4056	/	_	_	
24-137	4056-4059	MIT	_	_	
24-138	4059-4060	)	_	_	
24-139	4060-4061	:	_	_	
24-140	4063-4072	Copyright	_	_	
24-141	4073-4074	(	_	_	
24-142	4074-4075	c	_	_	
24-143	4075-4076	)	_	_	
24-144	4077-4081	2019	_	_	
24-145	4082-4092	University	_	_	
24-146	4093-4095	of	_	_	
24-147	4096-4104	Virginia	_	_	
24-148	4104-4105	,	_	_	
24-149	4106-4111	Fuwen	_	_	
24-150	4112-4115	Tan	_	_	
24-151	4115-4116	,	_	_	
24-152	4117-4122	Paola	_	_	
24-153	4123-4139	Cascante-Bonilla	_	_	
24-154	4139-4140	,	_	_	
24-155	4141-4149	Xiaoxiao	_	_	
24-156	4150-4153	Guo	_	_	
24-157	4153-4154	,	_	_	
24-158	4155-4158	Hui	_	_	
24-159	4159-4161	Wu	_	_	
24-160	4161-4162	,	_	_	
24-161	4163-4167	Song	_	_	
24-162	4168-4172	Feng	_	_	
24-163	4172-4173	,	_	_	
24-164	4174-4181	Vicente	_	_	
24-165	4182-4189	Ordonez	_	_	
24-166	4189-4190	.	_	_	

#Text=Permission is hereby granted, free of charge, to any person obtaining a copy
#Text=of this software and associated documentation files (the "Software"), to deal
#Text=in the Software without restriction, including without limitation the rights
#Text=to use, copy, modify, merge, publish, distribute, sublicense, and/or sell
#Text=copies of the Software, and to permit persons to whom the Software is
#Text=furnished to do so, subject to the following conditions:
#Text=
#Text=The above copyright notice and this permission notice shall be included in all
#Text=copies or substantial portions of the Software.
25-1	4192-4202	Permission	_	_	
25-2	4203-4205	is	_	_	
25-3	4206-4212	hereby	_	_	
25-4	4213-4220	granted	_	_	
25-5	4220-4221	,	_	_	
25-6	4222-4226	free	_	_	
25-7	4227-4229	of	_	_	
25-8	4230-4236	charge	_	_	
25-9	4236-4237	,	_	_	
25-10	4238-4240	to	_	_	
25-11	4241-4244	any	_	_	
25-12	4245-4251	person	_	_	
25-13	4252-4261	obtaining	_	_	
25-14	4262-4263	a	_	_	
25-15	4264-4268	copy	_	_	
25-16	4269-4271	of	_	_	
25-17	4272-4276	this	_	_	
25-18	4277-4285	software	_	_	
25-19	4286-4289	and	_	_	
25-20	4290-4300	associated	_	_	
25-21	4301-4314	documentation	_	_	
25-22	4315-4320	files	_	_	
25-23	4321-4322	(	_	_	
25-24	4322-4325	the	_	_	
25-25	4326-4327	"	_	_	
25-26	4327-4335	Software	_	_	
25-27	4335-4336	"	_	_	
25-28	4336-4337	)	_	_	
25-29	4337-4338	,	_	_	
25-30	4339-4341	to	_	_	
25-31	4342-4346	deal	_	_	
25-32	4347-4349	in	_	_	
25-33	4350-4353	the	_	_	
25-34	4354-4362	Software	_	_	
25-35	4363-4370	without	_	_	
25-36	4371-4382	restriction	_	_	
25-37	4382-4383	,	_	_	
25-38	4384-4393	including	_	_	
25-39	4394-4401	without	_	_	
25-40	4402-4412	limitation	_	_	
25-41	4413-4416	the	_	_	
25-42	4417-4423	rights	_	_	
25-43	4424-4426	to	_	_	
25-44	4427-4430	use	_	_	
25-45	4430-4431	,	_	_	
25-46	4432-4436	copy	_	_	
25-47	4436-4437	,	_	_	
25-48	4438-4444	modify	_	_	
25-49	4444-4445	,	_	_	
25-50	4446-4451	merge	_	_	
25-51	4451-4452	,	_	_	
25-52	4453-4460	publish	_	_	
25-53	4460-4461	,	_	_	
25-54	4462-4472	distribute	_	_	
25-55	4472-4473	,	_	_	
25-56	4474-4484	sublicense	_	_	
25-57	4484-4485	,	_	_	
25-58	4486-4489	and	_	_	
25-59	4489-4490	/	_	_	
25-60	4490-4492	or	_	_	
25-61	4493-4497	sell	_	_	
25-62	4498-4504	copies	_	_	
25-63	4505-4507	of	_	_	
25-64	4508-4511	the	_	_	
25-65	4512-4520	Software	_	_	
25-66	4520-4521	,	_	_	
25-67	4522-4525	and	_	_	
25-68	4526-4528	to	_	_	
25-69	4529-4535	permit	_	_	
25-70	4536-4543	persons	_	_	
25-71	4544-4546	to	_	_	
25-72	4547-4551	whom	_	_	
25-73	4552-4555	the	_	_	
25-74	4556-4564	Software	_	_	
25-75	4565-4567	is	_	_	
25-76	4568-4577	furnished	_	_	
25-77	4578-4580	to	_	_	
25-78	4581-4583	do	_	_	
25-79	4584-4586	so	_	_	
25-80	4586-4587	,	_	_	
25-81	4588-4595	subject	_	_	
25-82	4596-4598	to	_	_	
25-83	4599-4602	the	_	_	
25-84	4603-4612	following	_	_	
25-85	4613-4623	conditions	_	_	
25-86	4623-4624	:	_	_	
25-87	4626-4629	The	_	_	
25-88	4630-4635	above	_	_	
25-89	4636-4645	copyright	_	_	
25-90	4646-4652	notice	_	_	
25-91	4653-4656	and	_	_	
25-92	4657-4661	this	_	_	
25-93	4662-4672	permission	_	_	
25-94	4673-4679	notice	_	_	
25-95	4680-4685	shall	_	_	
25-96	4686-4688	be	_	_	
25-97	4689-4697	included	_	_	
25-98	4698-4700	in	_	_	
25-99	4701-4704	all	_	_	
25-100	4705-4711	copies	_	_	
25-101	4712-4714	or	_	_	
25-102	4715-4726	substantial	_	_	
25-103	4727-4735	portions	_	_	
25-104	4736-4738	of	_	_	
25-105	4739-4742	the	_	_	
25-106	4743-4751	Software	_	_	
25-107	4751-4752	.	_	_	

#Text=THE SOFTWARE IS PROVIDED "AS IS", WITHOUT WARRANTY OF ANY KIND, EXPRESS OR
#Text=IMPLIED, INCLUDING BUT NOT LIMITED TO THE WARRANTIES OF MERCHANTABILITY,
#Text=FITNESS FOR A PARTICULAR PURPOSE AND NONINFRINGEMENT.
26-1	4754-4757	THE	_	_	
26-2	4758-4766	SOFTWARE	_	_	
26-3	4767-4769	IS	_	_	
26-4	4770-4778	PROVIDED	_	_	
26-5	4779-4780	"	_	_	
26-6	4780-4782	AS	_	_	
26-7	4783-4785	IS	_	_	
26-8	4785-4786	"	_	_	
26-9	4786-4787	,	_	_	
26-10	4788-4795	WITHOUT	_	_	
26-11	4796-4804	WARRANTY	_	_	
26-12	4805-4807	OF	_	_	
26-13	4808-4811	ANY	_	_	
26-14	4812-4816	KIND	_	_	
26-15	4816-4817	,	_	_	
26-16	4818-4825	EXPRESS	_	_	
26-17	4826-4828	OR	_	_	
26-18	4829-4836	IMPLIED	_	_	
26-19	4836-4837	,	_	_	
26-20	4838-4847	INCLUDING	_	_	
26-21	4848-4851	BUT	_	_	
26-22	4852-4855	NOT	_	_	
26-23	4856-4863	LIMITED	_	_	
26-24	4864-4866	TO	_	_	
26-25	4867-4870	THE	_	_	
26-26	4871-4881	WARRANTIES	_	_	
26-27	4882-4884	OF	_	_	
26-28	4885-4900	MERCHANTABILITY	_	_	
26-29	4900-4901	,	_	_	
26-30	4902-4909	FITNESS	_	_	
26-31	4910-4913	FOR	_	_	
26-32	4914-4915	A	_	_	
26-33	4916-4926	PARTICULAR	_	_	
26-34	4927-4934	PURPOSE	_	_	
26-35	4935-4938	AND	_	_	
26-36	4939-4954	NONINFRINGEMENT	_	_	
26-37	4954-4955	.	_	_	

#Text=IN NO EVENT SHALL THE
#Text=AUTHORS OR COPYRIGHT HOLDERS BE LIABLE FOR ANY CLAIM, DAMAGES OR OTHER
#Text=LIABILITY, WHETHER IN AN ACTION OF CONTRACT, TORT OR OTHERWISE, ARISING FROM,
#Text=OUT OF OR IN CONNECTION WITH THE SOFTWARE OR THE USE OR OTHER DEALINGS IN THE
#Text=SOFTWARE.
27-1	4956-4958	IN	_	_	
27-2	4959-4961	NO	_	_	
27-3	4962-4967	EVENT	_	_	
27-4	4968-4973	SHALL	_	_	
27-5	4974-4977	THE	_	_	
27-6	4978-4985	AUTHORS	_	_	
27-7	4986-4988	OR	_	_	
27-8	4989-4998	COPYRIGHT	_	_	
27-9	4999-5006	HOLDERS	_	_	
27-10	5007-5009	BE	_	_	
27-11	5010-5016	LIABLE	_	_	
27-12	5017-5020	FOR	_	_	
27-13	5021-5024	ANY	_	_	
27-14	5025-5030	CLAIM	_	_	
27-15	5030-5031	,	_	_	
27-16	5032-5039	DAMAGES	_	_	
27-17	5040-5042	OR	_	_	
27-18	5043-5048	OTHER	_	_	
27-19	5049-5058	LIABILITY	_	_	
27-20	5058-5059	,	_	_	
27-21	5060-5067	WHETHER	_	_	
27-22	5068-5070	IN	_	_	
27-23	5071-5073	AN	_	_	
27-24	5074-5080	ACTION	_	_	
27-25	5081-5083	OF	_	_	
27-26	5084-5092	CONTRACT	_	_	
27-27	5092-5093	,	_	_	
27-28	5094-5098	TORT	_	_	
27-29	5099-5101	OR	_	_	
27-30	5102-5111	OTHERWISE	_	_	
27-31	5111-5112	,	_	_	
27-32	5113-5120	ARISING	_	_	
27-33	5121-5125	FROM	_	_	
27-34	5125-5126	,	_	_	
27-35	5127-5130	OUT	_	_	
27-36	5131-5133	OF	_	_	
27-37	5134-5136	OR	_	_	
27-38	5137-5139	IN	_	_	
27-39	5140-5150	CONNECTION	_	_	
27-40	5151-5155	WITH	_	_	
27-41	5156-5159	THE	_	_	
27-42	5160-5168	SOFTWARE	_	_	
27-43	5169-5171	OR	_	_	
27-44	5172-5175	THE	_	_	
27-45	5176-5179	USE	_	_	
27-46	5180-5182	OR	_	_	
27-47	5183-5188	OTHER	_	_	
27-48	5189-5197	DEALINGS	_	_	
27-49	5198-5200	IN	_	_	
27-50	5201-5204	THE	_	_	
27-51	5205-5213	SOFTWARE	_	_	
27-52	5213-5214	.	_	_	
